Time (s), X (km), Y (km), Z (km)
0.0000000000000,-3566.5577951511250,2287.6777520447849,-5484.5037249886627
160.3336440032764,-4008.2717568775874,1158.6141496333678,-5534.0118764830568
639.6893358595473,-4559.9713150231764,-2287.8113252543844,-4687.9559947358148
1433.1482374984744,-2845.3036527710651,-6252.5763401769018,-773.8252367132063
2532.5683868677938,2300.7860558720654,-4243.2425977222556,4771.9788844739369
3926.6682454818097,2779.1624324745026,4419.8832366988827,1508.1733138516738
5601.1424622726163,-4938.4195917799452,-8923.8743710093459,-2202.8686690178911
7538.8086658502853,-10302.5360909812953,-24684.1206324143204,-1890.4827291195863
9719.7837788847919,-15186.3372534884693,-39808.1517103330771,-1260.5227740483915
12121.6880453855338,-20106.9518241350743,-55276.5878079006216,-523.0850203582188
14719.8746772824252,-25165.7857044888842,-71286.8126327936770,282.9013133151984
17487.6827638239229,-30379.0966274740349,-87845.4596779641724,1140.0430071664432
20396.7108485993667,-35732.2064731866776,-104884.5587493653584,2036.4078262758635
23417.1083669149848,-41195.5594110482198,-122298.2756190601940,2961.8045523080837
26517.8819529819775,-46731.2236052956068,-139958.5885105103371,3906.6340268895892
29667.2134737902197,-52296.1552888033402,-157723.5659470287501,4861.4941302950510
32832.7865262097694,-57844.1438315598643,-175442.5512784881284,5817.0566302441639
35982.1180470180188,-63327.1451170052314,-192959.8825374603912,6764.0566750680391
39082.8916330850116,-68696.3004989526817,-210117.8444708080497,7693.3335173205642
42103.2891514006333,-73902.7782313351636,-226759.1770898763207,8595.8957253027638
45012.3172361760735,-78898.5043996143650,-242729.2999379658140,9462.9979598198934
47780.1253227175839,-83636.8173098456900,-257878.3319725939946,10286.2224350264223
50378.3119546144517,-88073.0625854302925,-272062.9464539493201,11057.5610337579565
52780.2162211152026,-92165.1373566443508,-285148.0785746314796,11769.4954887047443
54961.1913341497129,-95873.9870629280922,-297008.4916531356866,12415.0738192848003
56898.8575377273883,-99164.0556780334737,-307530.2011199584813,12987.9816663414076
58573.3317545181926,-102003.6886777821928,-316611.7519819302252,13482.6074525218810
59967.4316131322048,-104365.4873012435855,-324165.3437370624160,13894.1004948145364
61066.8517625015229,-106226.6123314015131,-330117.7961425113608,14218.4213482146697
61860.3106641404520,-107569.0355798997625,-334411.3494091464090,14452.3837876064554
62339.6663559967201,-108379.7374046520708,-337004.2930600277032,14593.6879504221943
62500.0000000000000,-108650.8488569580513,-337871.4186869728146,14640.9442718240552
62500.0000000000000,-108650.8488569580513,-337871.4186869728146,14640.9442718240552
62660.3336440032799,-108921.9354691426124,-338738.4670686281752,14688.1972459672779
63139.6893358595480,-109732.2667085431603,-341330.2583124479861,14829.4514723724860
63933.1482374984771,-111073.1001875393995,-345618.8679178965976,15063.1997060345075
65032.5683868677952,-112930.0075232942181,-351558.2049582201871,15386.9523914968904
66426.6682454818074,-115283.0797600977821,-359084.6623859996325,15797.2704732184120
68101.1424622726190,-118107.2005983137060,-368117.9831519926665,16289.8095523916418
70038.8086658502871,-121372.3762421377614,-378562.3074765307829,16859.3739405619599
72219.7837788847974,-125044.1109163921064,-390307.3671787941712,17499.9791148471631
74621.6880453855265,-129083.8184945349640,-403229.7970928213908,18204.9211757087651
77219.8746772824234,-133449.2626199867809,-417194.5394486477016,18966.8520880262258
79987.6827638239192,-138095.0196363760333,-432056.3229822172434,19777.8596899836884
82896.7108485993667,-142972.9601931615616,-447661.2032976002083,20629.5516352584891
85917.1083669149812,-148032.7463941820897,-463848.1541095103603,21513.1425650499514
89017.8819529819739,-153222.3418118537520,-480450.7004355534445,22419.5438794112924
92167.2134737902234,-158488.5317065779818,-497298.5849009691156,23339.4554978800479
95332.7865262097621,-163777.4505167487077,-514219.4575074127642,24263.4589809070931
98482.1180470180116,-169035.1132616626855,-531040.5779354572296,25182.1113416435473
101582.8916330850043,-174207.9470412344090,-547590.5180487927282,26086.0388264818466
104603.2891514006333,-179243.3184011477570,-563700.8509917267365,26966.0298934708735
107512.3172361760808,-184090.0520064760931,-579207.8122682125540,27813.1265779274690
110280.1253227175912,-188698.9358528833254,-593953.9175320758950,28618.7134087120648
112878.3119546144444,-193023.2081476566673,-607789.5215240400285,29374.6030287693138
115280.2162211152026,-197019.0210083954444,-620574.3026494423393,30073.1176800286667
117461.1913341497129,-200645.8762453754607,-632178.6580721065402,30707.1657349411653
119398.8575377273955,-203867.0287025548168,-642484.9948685840936,31270.3124935476189
121073.3317545181926,-206649.8529197489261,-651388.9037053954089,31756.8445145103542
122467.4316131322121,-208966.1692332121020,-658800.2026342487661,32161.8268094033119
123566.8517625015229,-210792.5258432277769,-664643.8399134866195,32481.1523001712339
124360.3106641404447,-212110.4338358741661,-668860.6462283097208,32711.5830185390150
124839.6663559967128,-212906.5526433219493,-671407.9282703966601,32850.7826118569428
125000.0000000000000,-213172.8239549908612,-672259.8973243365763,32897.3398110638736
125000.0000000000000,-213172.8239549908612,-672259.8973243365763,32897.3398110638736
125160.3336440032726,-213439.0890597472608,-673111.8468042133609,32943.8960524053327
125639.6893358595407,-214235.1152711808390,-675658.8368364010239,33083.0813561104078
126433.1482374984771,-215552.6261183302558,-679874.3907181476243,33313.4507866532949
127532.5683868677879,-217377.9297287934460,-685714.7072801114991,33632.6137816438932
128926.6682454818074,-219692.0703251208761,-693119.1449543145718,34037.2603446784706
130601.1424622726190,-222471.0367060583958,-702010.8880094566848,34523.1971292688395
132538.8086658502871,-225686.0243803994672,-712297.7843744991114,35085.3928681457910
134719.7837788847974,-229303.7474151218194,-723873.3425325639546,35718.0324964314423
137121.6880453855265,-233286.7956308417779,-736617.8735858565196,36414.5792378370170
139719.8746772824379,-237594.0325010065280,-750399.7636902551167,37167.8438670964242
142487.6827638239192,-242181.0289487840491,-765076.8615179737099,37970.0603243319783
145396.7108485993813,-247000.5281466699671,-780497.9651017651195,38812.9668324193335
148417.1083669149957,-252002.9363729074248,-796504.3922335418174,39687.8916516431345
151517.8819529819884,-257136.8349403553293,-812931.6184538147645,40585.8425932272803
154667.2134737902088,-262349.5081733261468,-829610.9665312875295,41497.5994024254833
157832.7865262097621,-267587.4823625010322,-846371.3311822951073,42413.8081119822091
160982.1180470180116,-272797.0705815439578,-863040.9226302501047,43325.0764582920674
164082.8916330850043,-277924.9182105895597,-879449.0124839731725,44222.0694466380664
167103.2891514006187,-282918.5439925046521,-895427.6653554049553,45095.6041499841158
170012.3172361760808,-287726.8714587568538,-910813.4396761831595,45936.7428294952988
172780.1253227175912,-292300.7456123250304,-925449.0413385920692,46736.8834756431825
175378.3119546144444,-296593.4298525320482,-939184.9141020120587,47487.8468874985920
177780.2162211152026,-300561.0782756139524,-951880.7511858432554,48181.9594353341017
179961.1913341497129,-304163.1786874888348,-963406.9131210013293,48812.1306883041761
181898.8575377273955,-307362.9619216676801,-973645.7377548452932,49371.9251347633908
183573.3317545182072,-310127.7733639059588,-982492.7292935696896,49855.6272774593454
184967.4316131322121,-312429.4029430128285,-989857.6144121123943,50258.2994489058910
186066.8517625015229,-314244.3702501162188,-995665.2547514640028,50575.8317630267993
186860.3106641404447,-315554.1618917559390,-999856.4065414199140,50804.9836968460149
187339.6663559967128,-316345.4186599877430,-1002388.3196159008658,50943.4168796660306
187500.0000000000000,-316610.0706093572662,-1003235.1697092670947,50989.7187558216028
187500.0000000000000,-316610.0706093572662,-1003235.1697092670947,50989.7187558216028
187660.3336440032872,-316874.7197820543079,-1004082.0110042541055,51036.0201847970093
188139.6893358595553,-317665.9351276083034,-1006613.7928236403968,51174.4466965417741
188933.1482374984771,-318975.5491132476018,-1010804.3816792331636,51403.5700191324868
190032.5683868677879,-320790.0454298920231,-1016610.5296034762869,51721.0264814961629
191426.6682454818219,-323090.7020753583056,-1023972.3318182856310,52123.5419670555566
193101.1424622726045,-325853.7891423107940,-1032813.8594025763450,52606.9664163230773
195038.8086658502871,-329050.8188746911474,-1043043.9591815596214,53166.3174605894965
197219.7837788847974,-332648.8449803820113,-1054557.2112191007473,53795.8326686502987
199621.6880453855265,-336610.8076840388239,-1067235.0326814628206,54489.0298000047624
202219.8746772824379,-340895.9205728788511,-1080946.9154586051591,55238.7743813978377
204987.6827638239192,-345460.0949257750181,-1095551.7837657118216,56037.3538584970665
207896.7108485993813,-350256.3969156022649,-1110899.4569820421748,56876.5575200085514
210917.1083669149957,-355235.5328289002064,-1126832.2021930515766,57747.7613465736576
214017.8819529819884,-360346.3572487250785,-1143186.3602635953575,58642.0169003557894
217167.2134737902088,-365536.3989908678923,-1159794.0287685999647,59550.1433425479408
220332.7865262097621,-370752.3994673658744,-1176484.7847332253587,60462.8216446340157
223482.1180470180116,-375940.8580734075513,-1193087.4298839902040,61370.6900449452805
226582.8916330850043,-381048.5791550100548,-1209431.7409876883030,62264.4397949475897
229603.2891514006187,-386023.2151170145953,-1225350.2078617403749,63134.9102400234115
232512.3172361760808,-390813.8002763214754,-1240679.7417851788923,63973.1822876079023
235280.1253227175912,-395371.2701561643044,-1255263.3373309122398,64770.6693317308309
237878.3119546144444,-399648.9610554606770,-1268951.6710830861703,65519.2047275696968
240280.2162211152026,-403603.0849139986094,-1281604.6213017292321,66211.1249426818977
242461.1913341497129,-407193.1747296454269,-1293092.6933510736562,66839.3475531596632
244398.8575377273955,-410382.4960671639419,-1303298.3366155752447,67397.4433028891508
246073.3317545182072,-413138.4205278855516,-1312117.1396832414903,67879.7015020844265
247467.4316131322121,-415432.7574228518642,-1319458.8917711791582,68281.1881068531366
248566.8517625015229,-417242.0403057035292,-1325248.4996924407315,68597.7958941415563
249360.3106641404447,-418547.7654715043027,-1329426.7511032866314,68826.2862252948398
249839.6663559967128,-419336.5800091835554,-1331950.9163110102527,68964.3219758451451
250000.0000000000000,-419600.4175032311468,-1332795.1825480863918,69010.4912981155358
250000.0000000000000,-419600.4175032311468,-1332795.1825480863918,69010.4912981155358
250160.3336440032872,-419864.2534269889584,-1333639.4437973822933,69056.6603621248214
250639.6893358595553,-420653.0445389867527,-1336163.5345970899798,69194.6922599205427
251433.1482374984771,-421958.6692366093048,-1340341.4668865066487,69423.1660673775041
252532.5683868677879,-423767.6857743537403,-1346130.2288045517635,69739.7300498249097
253926.6682454818219,-426061.4725205576979,-1353470.2334330773447,70141.1261741650524
255601.1424622726045,-428816.4220768968808,-1362285.9398775980808,70623.2240373187378
257538.8086658502871,-432004.1870730649098,-1372486.6396920161787,71181.0638311927905
259719.7837788847974,-435591.9748945193132,-1383967.3998801286798,71808.9078676293866
262121.6880453855265,-439542.8880928275175,-1396610.1520800075959,72500.3000978386990
264719.8746772824088,-443816.3067701169057,-1410284.9160710594151,73248.1329803910776
267487.6827638239483,-448368.3088234355673,-1424851.1444442658685,74044.7209803650330
270396.7108485993813,-453152.1235818428686,-1440159.1741451697890,74881.8799198523629
273417.1083669149666,-458118.6140681437682,-1456051.7696347436868,75751.0113466806215
276517.8819529819884,-463216.7828672802425,-1472365.7416121056303,76643.1910438078048
279667.2134737902088,-468394.2963834557449,-1488933.6246018828824,77549.2607662471273
282832.7865262097912,-473598.0221173452446,-1505585.3962255825754,78459.9222654973564
285982.1180470180116,-478774.5734929200262,-1522150.2206496354192,79365.8326432499452
289082.8916330850334,-483870.8567106096307,-1538458.1985332055483,80257.7000666412787
292103.2891514006187,-488834.6141000910429,-1554342.1057875528932,81126.3788765696809
295012.3172361760517,-493614.9584924452356,-1569639.1036072485149,81962.9631286748190
297780.1253227175912,-498162.8932280982845,-1584192.4025429761969,82758.8776235209516
300378.3119546144735,-502431.8125639741775,-1597852.8638562478591,83505.9655083327816
302780.2162211152026,-506377.9774402392795,-1610480.5220268745907,84196.5715672151127
304961.1913341496838,-509960.9618129926384,-1621946.0130714385305,84823.6203599682922
306898.8575377273955,-513144.0650526968529,-1632131.8942703327630,85380.6884211045399
308573.3317545182072,-515894.6862468329491,-1640933.8419850370847,85862.0697900789819
309967.4316131321830,-518184.6566263569403,-1648261.7154670746531,86262.8342105693009
311066.8517625015229,-519990.5267555559403,-1654040.4759044065140,86578.8774102580646
311860.3106641404447,-521293.8055798356654,-1658210.9514070258010,86806.9629522871401
312339.6663559967419,-522081.1489112914423,-1660730.4401867194101,86944.7552345740842
312500.0000000000000,-522344.4954426758341,-1661573.1458205555100,86990.8433026397979
312500.0000000000000,-522344.4954426758341,-1661573.1458205555100,86990.8433026397979
312660.3336440032581,-522607.8409648807137,-1662415.8482442006934,87036.9312026375555
313139.6893358595553,-523395.1692413514829,-1664935.2891341228969,87174.7209776793461
313933.1482374984771,-524698.3834981082473,-1669105.5592480469495,87402.7957666903967
315032.5683868678170,-526504.0824591689743,-1674883.7752012058627,87718.8104602324456
316426.6682454817928,-528793.6992959842319,-1682210.5240677932743,88119.5160023219214
318101.1424622726045,-531543.6940305893077,-1691010.4790231282823,88600.7930424511287
320038.8086658502580,-534725.7973052602028,-1701193.1793505714741,89157.6945739093062
322219.7837788847974,-538307.3028885124950,-1712653.9664001690689,89784.4970996456104
324621.6880453855265,-542251.4057809822261,-1725275.0654659408610,90474.7597783470264
327219.8746772824088,-546517.5823200487066,-1738926.8020615687128,91221.3909219970810
329987.6827638239483,-551062.0082626468502,-1753468.9397317166440,92016.7211425958230
332896.7108485993813,-555838.0104541729670,-1768752.1253466915805,92852.5823804385727
335917.1083669149666,-560796.5473694192478,-1784619.4267971927766,93720.3919897029991
339017.8819529819884,-565886.7135402254062,-1800907.9471371949185,94611.2410093081708
342167.2134737902088,-571056.2626647503348,-1817450.4985190331936,95515.9857082449307
345332.7865262097912,-576252.1440254930640,-1834077.3187272830401,96425.3414649469487
348482.1180470180116,-581421.0467278447468,-1850617.8127484165598,97329.9780198635563
351582.8916330850334,-586509.9462083830731,-1866902.3016126172151,98220.6151292763097
354603.2891514006187,-591466.6474525331287,-1882763.7607131954283,99088.1176466069301
357512.3172361760517,-596240.3194046879653,-1898039.5299479949754,99923.5890650046495
360280.1253227175912,-600782.0151501684450,-1912572.9783352415543,100718.4625718272146
362878.3119546144735,-605045.1725969704567,-1926215.1062317215838,101464.5886916396557
365280.2162211152026,-608986.0905850967392,-1938826.0689207736868,102154.3186293657636
367461.1913341496838,-612564.3756009334465,-1950276.6061366111971,102780.5824689729925
369398.8575377273955,-615743.3545716104563,-1960449.3630435676314,103336.9614351973869
371073.3317545182072,-618490.4495570289437,-1969240.0892857895233,103817.7534858674480
372467.4316131321830,-620777.5105421707267,-1976558.7039548316970,104218.0315698228806
373566.8517625015229,-622581.1029557990842,-1982330.2156779468060,104533.6939596089942
374360.3106641404447,-623882.7469996443251,-1986495.4884955498856,104761.5061483436730
374839.6663559967419,-624669.1063600972993,-1989011.8457578406669,104899.1338856076327
375000.0000000000000,-624932.1243873990607,-1989853.5059121816885,104945.1670170389843
375000.0000000000000,-624932.1243873990607,-1989853.5059121816885,104945.1670170389843
375160.3336440032581,-625195.1417115802178,-1990695.1638277082238,104991.2000303949317
375639.6893358595553,-625981.4905828547198,-1993211.4876912862528,105128.8260062059708
376433.1482374984771,-627283.0896410583518,-1997376.6172696007416,105356.6306404818752
377532.5683868678170,-629086.5627991067013,-2003147.7492697187699,105672.2730036430439
378926.6682454817928,-631373.3774704525713,-2010465.5796484895982,106072.5097241303883
380601.1424622726045,-634120.0360172304790,-2019254.9162225814071,106553.2284839404165
382538.8086658502580,-637298.3183817586396,-2029425.4550613351166,107109.4904702507483
384719.7837788847974,-640875.5733278089901,-2040872.7124287968036,107735.5813335449930
387121.6880453855265,-644815.0552140859654,-2053479.1024286623579,108425.0701144761697
389719.8746772824088,-649076.3027558445465,-2067115.1490129709709,109170.8755200315209
392487.6827638239483,-653615.5558057897724,-2081640.8196558610070,109965.3388551321113
395396.7108485993813,-658386.2058057858376,-2096906.9667786627542,110800.3028492357989
398417.1083669149666,-663339.2752291971119,-2112756.8619507872500,111667.1955593032762
401517.8819529819884,-668423.9210520057241,-2129027.8069891328923,112557.1184810211707
404667.2134737902088,-673587.9570608511567,-2145552.8053423482925,113460.9379597554798
407832.7865262097912,-678778.3896290501580,-2162162.2765792743303,114369.3789615600836
410982.1180470180116,-683941.9614683864638,-2178685.7964061116800,115273.1202428561373
414082.8916330850334,-689025.6977956218179,-2194953.8444163436070,116162.8899452402111
417103.2891514006187,-693977.4493385461392,-2210799.5417320234701,117029.5606393226481
420012.3172361760517,-698746.4266469429713,-2226060.3608246967196,117864.2428485405399
422780.1253227175912,-703283.7202686702367,-2240579.7901076017879,118658.3761004541157
425378.3119546144735,-707542.8014993584948,-2254208.9363653343171,119403.8165789812774
427780.2162211152026,-711479.9986147313612,-2266808.0487287864089,120092.9204861242615
429961.1913341496838,-715054.9437455281150,-2278247.9487063456327,120718.6222656887840
431898.8575377273955,-718230.9858542219736,-2288411.3517398899421,121274.5068938941840
433573.3317545182072,-720975.5656174218748,-2297194.0668572243303,121754.8755021385150
434967.4316131321830,-723260.5484048030339,-2304506.0622309627943,122154.8036649473070
436066.8517625015229,-725062.5119708892889,-2310272.3858154844493,122470.1917606435891
436860.3106641404447,-726362.9859358642716,-2314433.9317052275874,122697.8068928022985
437339.6663559967419,-727148.6406212457223,-2316948.0444245813414,122835.3159462922777
437500.0000000000000,-727411.4233207950601,-2317788.9550062571652,122881.3094418034307
437500.0000000000000,-727411.4233207950601,-2317788.9550062571652,122881.3094418034307
437660.3336440032581,-727674.2055023995927,-2318629.8639375781640,122927.3028498183849
438139.6893358595553,-728459.8524610651657,-2321143.9520368943922,123064.8105980375112
438933.1482374984771,-729760.2932880189037,-2325305.3923372346908,123292.4201322053268
440032.5683868678170,-731562.1690066988813,-2331071.4360090098344,123607.7933878873155
441426.6682454817928,-733846.9703538493486,-2338382.8532504164614,124007.6909001348686
443101.1424622726045,-736591.2286340632709,-2347164.5440102699213,124488.0052006256738
445038.8086658502580,-739766.7576387366280,-2357326.3121152906679,125043.8031510853325
447219.7837788847974,-743340.9440883160569,-2368763.7946713203564,125669.3767687310028
449621.6880453855265,-747277.0835546088638,-2381359.5370012498461,126358.3020116231055
