Time (s), X (km), Y (km), Z (km)
0.0000000000000,-3566.5577951511250,2287.6777520447849,-5484.5037249886627
160.3336440032764,-4008.2668979389023,1158.6237080300082,-5534.0100560199025
639.6893358595473,-4558.8720659059936,-2284.8607318947743,-4687.8955699797270
1433.1482374984744,-2849.1708736651863,-6210.6338599825285,-797.3669566962112
2532.5683868677938,2188.5529550694919,-3805.3426997406714,4436.2431261890943
3926.6682454818097,1328.3210029185389,4021.6648098007554,-130.3884655909815
5601.1424622726163,-6024.9403351738856,-38309.9006544395452,9539.3856158655217
7538.8086658502853,-10098.2895369315520,-7638.5352474647552,-9234.9156818939882
9719.7837788847919,-34231.0974749258457,-89036.0439643845602,-3150.9188398096176
12121.6880453855338,-45421.8201336417551,-108444.4713987794676,-8505.4732762013682
14719.8746772824252,-55648.0905319668818,-141166.1318141026131,-6716.7974810556270
17487.6827638239229,-71059.8815250999032,-179200.6110428516695,-9050.3617407126367
20396.7108485993667,-86189.5290388326684,-218353.1595289148972,-10532.2354849470212
23417.1083669149848,-101864.8933955113171,-258935.6340011975844,-12059.6594546966826
26517.8819529819775,-117938.8673889308120,-300553.2478776557255,-13624.5129231377850
29667.2134737902197,-134250.3899345045502,-342786.3211700446554,-15212.3073656859960
32832.7865262097694,-150635.1327204883855,-385209.3766314731911,-16807.0492705393372
35982.1180470180188,-166927.2824477687536,-427392.9715552348061,-18392.6543445287680
39082.8916330850116,-182961.5078617842519,-468908.9466445145663,-19953.0694688697367
42103.2891514006333,-198574.7902271093335,-509335.1533206575550,-21472.4562651689557
45012.3172361760735,-213608.1773942830041,-548259.9869599484373,-22935.3655472459286
47780.1253227175839,-227908.4684806555160,-585286.7440814016154,-24326.9034127132618
50378.3119546144517,-241329.8230177107907,-620037.7858702562517,-25632.8891331500090
52780.2162211152026,-253735.2840451594966,-652158.4799607923487,-26840.0041930449152
54961.1913341497129,-264998.2029923165101,-681320.8885638503125,-27935.9314864156768
56898.8575377273883,-275003.5538589918870,-707227.1703656476457,-28909.4835628059373
58573.3317545181926,-283649.1245807844680,-729612.6646880635526,-29750.7188066301824
59967.4316131322048,-290846.5742623502738,-748248.6285230786307,-30451.0444872364606
61066.8517625015229,-296522.3460464104428,-762944.5998930674978,-31003.3057083856984
61860.3106641404520,-300618.4266751736868,-773550.3643452816177,-31401.8594026388091
62339.6663559967201,-303092.9452422682079,-779957.5051332975272,-31642.6326509352366
62500.0000000000000,-303920.6051894637640,-782100.5216756400187,-31723.1647554605042
62500.0000000000000,-303920.6051894637640,-782100.5216756400187,-31723.1647554605042
62660.3336440032799,-304748.2607489772490,-784243.5269269080600,-31803.6964019737279
63139.6893358595480,-307222.7034722171375,-790650.4725404538913,-32044.4617337419622
63933.1482374984771,-311318.4518760322826,-801255.3820550179807,-32442.9807502279946
65032.5683868677952,-316993.3420017345343,-815949.0846066105878,-32995.1499370308666
66426.6682454818074,-324188.9572958241333,-834580.3279729818460,-33695.2841040232524
68101.1424622726190,-332831.2571274295915,-856957.4054340356961,-34536.1777756130177
70038.8086658502871,-342831.3477296677884,-882850.1517036732985,-35509.1803049453301
72219.7837788847974,-354086.4088142933906,-911992.3419108620146,-36604.2861475113386
74621.6880453855265,-366480.7607009129715,-944084.4544743848965,-37810.2387772280199
77219.8746772824234,-379887.0603903390002,-978796.7679184741573,-39114.6471165462499
79987.6827638239192,-394167.6141105309944,-1015772.7593332767719,-40504.1132689269289
82896.7108485993667,-409175.7930644268054,-1054632.7701073037460,-41964.3702676627290
85917.1083669149812,-424757.5382970983628,-1094977.9024537804071,-43480.4284774124899
89017.8819529819739,-440752.9398004055256,-1136394.1081834982615,-45036.7292069710675
92167.2134737902234,-456997.8742247023038,-1178456.4292405324522,-46617.3040180088865
95332.7865262097621,-473325.6849126239540,-1220733.3478253923822,-48205.9381495231064
98482.1180470180116,-489568.8874482520623,-1262791.2025822207797,-49786.3364256651621
101582.8916330850043,-505560.8835553094395,-1304198.6263979638461,-51342.2899784935871
104603.2891514006333,-521137.6659994897782,-1344530.9609010631684,-52857.8420989677543
107512.3172361760808,-536139.4971625109902,-1383374.6027808911167,-54317.4515301124411
110280.1253227175912,-550412.5441618512850,-1420331.2375843494665,-55706.1515359809564
112878.3119546144444,-563810.4537880372955,-1455021.9176768271718,-57009.7031185458909
115280.2162211152026,-576195.8511148414109,-1487090.9425657293759,-58214.7408113200872
117461.1913341497129,-587441.7463982666377,-1516209.5017540256958,-59308.9095524840741
119398.8575377273955,-597432.8358074000571,-1542079.0426919872407,-60280.9912305315156
121073.3317545181926,-606066.6826122654602,-1564434.3291968812700,-61121.0196007678096
122467.4316131322121,-613254.7666777521372,-1583046.1588793962728,-61820.3823901358919
123566.8517625015229,-618923.3914644975448,-1597723.7116155964322,-62371.9095394217802
124360.3106641404447,-623014.4392023184337,-1608316.5048956403043,-62769.9466744541423
124839.6663559967128,-625485.9664636144880,-1614715.9359243621584,-63010.4130499158273
125000.0000000000000,-626312.6340065572876,-1616856.3946013126988,-63090.8433692222825
125000.0000000000000,-626312.6340065572876,-1616856.3946013126988,-63090.8433692222825
125160.3336440032726,-627139.3005255121971,-1618996.8506347916555,-63171.2735853773629
125639.6893358595407,-629610.8100695991889,-1625396.2359256674536,-63411.7381761233264
126433.1482374984771,-633701.7802061290713,-1635988.8288741679862,-63809.7674941071746
127532.5683868677879,-639370.1992310137721,-1650665.8504264838994,-64361.2739160773926
128926.6682454818074,-646557.8558551847236,-1669276.5766508074012,-65060.5936466534476
130601.1424622726190,-655190.9426449469756,-1691629.9011489383411,-65900.5454536641337
132538.8086658502871,-665180.8155385123100,-1717496.3016207395121,-66872.5045751455182
134719.7837788847974,-676424.9067016732879,-1746610.2034562609624,-67966.4915487626276
137121.6880453855265,-688807.7801110298606,-1778672.7128897067159,-69171.2749265881575
139719.8746772824379,-702202.3188458610093,-1813354.6911861819681,-70474.4868023660383
142487.6827638239192,-716471.0317625940079,-1850300.1379470219836,-71862.7499514838128
145396.7108485993813,-731467.4660593244480,-1889129.8485984106082,-73321.8152707014378
148417.1083669149957,-747037.7112055940088,-1929445.3084546504542,-74836.7081045182858
151517.8819529819884,-763021.9788209610851,-1970832.7834382329602,-76391.8819585017627
154667.2134737902088,-779256.2423411330674,-2012867.5656101838686,-77971.3780275619938
157832.7865262097621,-795573.9197196690366,-2055118.3301344041247,-79558.9889097341802
160982.1180470180116,-811807.5819835304283,-2097151.5591870388016,-81138.4248342225765
164082.8916330850043,-827790.6701984395040,-2138535.9876427645795,-82693.4807069034141
167103.2891514006187,-843359.2033100690460,-2178847.0251371511258,-84208.2022676788183
170012.3172361760808,-858353.4594127468299,-2217671.1093261847273,-85667.0496623444487
172780.1253227175912,-872619.6132596668322,-2254609.9458433692344,-87055.0567570910644
175378.3119546144444,-886011.3132664115401,-2289284.5915885674767,-88357.9845662999141
177780.2162211152026,-898391.1818695000838,-2321339.3395620603114,-89562.4672235839680
179961.1913341497129,-909632.2238781364867,-2350445.3654678580351,-90656.1490015333547
181898.8575377273955,-919619.1283927684417,-2376304.0987324430607,-91627.8109766062553
183573.3317545182072,-928249.4509490081109,-2398650.2833943790756,-92467.4860411440168
184967.4316131322121,-935434.6637688025367,-2417254.6974877850153,-93166.5610834978288
186066.8517625015229,-941101.0633497749222,-2431926.5030356999487,-93717.8652884985640
186860.3106641404447,-945190.5260843972210,-2442515.2025516107678,-94115.7436526173406
187339.6663559967128,-947661.1041579043958,-2448912.1819795528427,-94356.1149596739706
187500.0000000000000,-948487.4556114474544,-2451051.8242433317937,-94436.5136222774308
187500.0000000000000,-948487.4556114474544,-2451051.8242433317937,-94436.5136222774308
187660.3336440032872,-949313.8066197574371,-2453191.4653565539047,-94516.9122405508679
188139.6893358595553,-951784.3769874739228,-2459588.4248714279383,-94757.2827803788241
188933.1482374984771,-955873.8059707266511,-2470177.0371680837125,-95155.1577840359823
190032.5683868677879,-961540.1160748974653,-2484848.6114928573370,-95706.4530802314111
191426.6682454818219,-968725.1430710614659,-2503452.5453868792392,-96405.5096208643663
193101.1424622726045,-977355.1353829876753,-2525797.8766428274103,-97245.1518040066439
195038.8086658502871,-987341.5117168915458,-2551655.2450026082806,-98216.7611890359694
197219.7837788847974,-998581.7713788175024,-2580759.2492011403665,-99310.3650684121531
199621.6880453855265,-1010960.5474164664047,-2612811.1738207004964,-100514.7389352006867
202219.8746772824379,-1024350.7917021804024,-2647482.0577766336501,-101817.5217872421927
204987.6827638239192,-1038615.0797306984896,-2684416.0727774933912,-103205.3430782372889
207896.7108485993813,-1053607.0216939093079,-2723234.1769659258425,-104663.9600082204561
210917.1083669149957,-1069172.7653223269153,-2763538.0061694914475,-106178.4037416114879
214017.8819529819884,-1085152.5750588593073,-2804913.9627976021729,-107733.1330511749693
217167.2134737902088,-1101382.4713626583107,-2846937.4604326640256,-109312.1938115630182
220332.7865262097621,-1117695.9133364723530,-2889177.2805985785089,-110899.3827073481662
223482.1180470180116,-1133925.5074357443955,-2931199.9970629159361,-112478.4134781332687
226582.8916330850043,-1149904.7247562247794,-2972574.4223520262167,-114033.0839978946024
229603.2891514006187,-1165469.6093120595906,-3012876.0309387706220,-115547.4424774635263
232512.3172361760808,-1180460.4598095680121,-3051691.3138040164486,-117005.9510881186143
235280.1253227175912,-1194723.4676928138360,-3088622.0197744732723,-118393.6453306059993
237878.3119546144444,-1208112.2946833956521,-3123289.2401951216161,-119696.2875173177745
240280.2162211152026,-1220489.5736545445397,-3155337.2950938008726,-120900.5127954397758
242461.1913341497129,-1231728.3174627039116,-3184437.3810231722891,-121993.9662150573276
244398.8575377273955,-1241713.2213005651720,-3210290.9432012704201,-122965.4294377296319
246073.3317545182072,-1250341.8452245949302,-3232632.7373917582445,-123804.9357869927480
247467.4316131322121,-1257525.6647364192177,-3251233.5501402951777,-124503.8724615570245
248566.8517625015229,-1263190.9786484923679,-3265902.5494817155413,-125055.0688634075923
249360.3106641404447,-1267279.6649264520966,-3276489.2420181487687,-125452.8701352522767
249839.6663559967128,-1269749.7767584230751,-3282885.0163019457832,-125693.1951533268730
250000.0000000000000,-1270575.9727392571513,-3285024.2566977837123,-125773.5783809050481
250000.0000000000000,-1270575.9727392571513,-3285024.2566977837123,-125773.5783809050481
250160.3336440032872,-1271402.1684723219369,-3287163.4964530239813,-125853.9615839566250
250639.6893358595553,-1273872.2760154495481,-3293559.2596481842920,-126094.2861774815392
251433.1482374984771,-1277960.9435081670526,-3304145.9036161066033,-126492.0855897882138
252532.5683868677879,-1283626.2076230044477,-3318814.7742087347433,-127043.2770622371463
253926.6682454818219,-1290809.9237271694001,-3337415.3196008913219,-127742.2035005105427
255601.1424622726045,-1299438.3639066454489,-3359756.6387273077853,-128581.6916608939791
257538.8086658502871,-1309422.9739506142214,-3385609.4413136285730,-129553.1258007278811
259719.7837788847974,-1320661.2827693107538,-3414708.4025968625210,-130646.5361600865581
262121.6880453855265,-1333037.9546288703568,-3446754.8878369294107,-131850.7013385569153
264719.8746772824088,-1346425.9733656605240,-3481420.0185583159328,-133153.2635126104287
267487.6827638239483,-1360687.9463921585120,-3518348.0489642242901,-134540.8553076874523
270396.7108485993813,-1375677.5150842498988,-3557160.0178009620868,-135999.2370202217426
273417.1083669149666,-1391240.8570562892128,-3597457.6381447431631,-137513.4427794349613
276517.8819529819884,-1407218.2648958032951,-3638827.3851634347811,-139067.9341478344286
279667.2134737902088,-1423445.7851532301866,-3680844.7398952259682,-140646.7595838195994
282832.7865262097912,-1439756.9007710050792,-3723078.5455039027147,-142233.7181303639954
285982.1180470180116,-1455984.2396965345833,-3765095.4313316992484,-143812.5256509642932
289082.8916330850334,-1471961.2921595335938,-3806464.2593869497068,-145366.9819083638431
292103.2891514006187,-1487524.1190084549598,-3846760.5476817395538,-146881.1367732201470
295012.3172361760517,-1502513.0335943908431,-3885570.8250772226602,-148339.4538589979929
297780.1253227175912,-1516774.2399629813153,-3922496.8729989724234,-149726.9699058478291
300378.3119546144735,-1530161.4105630330741,-3957159.8105451613665,-151029.4482798303652
302780.2162211152026,-1542537.1873003067449,-3989203.9811150794849,-152233.5250141417491
304961.1913341496838,-1553774.5905501313973,-4018300.6007186039351,-153326.8458953844383
306898.8575377273955,-1563758.3216852995101,-4044151.1305683939718,-154298.1931896520546
308573.3317545182072,-1572385.9457665353548,-4066490.3393810605630,-155137.6007093230146
309967.4316131321830,-1579568.9422706603073,-4085089.0239927507937,-155836.4560409137048
311066.8517625015229,-1585233.6130838594399,-4099756.3603960080072,-156387.5888859053666
311860.3106641404447,-1589321.8384503768757,-4110341.8610926750116,-156785.3446087893681
312339.6663559967419,-1591791.6731255548075,-4116736.9186932016164,-157025.6422382111487
312500.0000000000000,-1592617.7766203498468,-4118875.9199345163070,-157106.0163264796720
312500.0000000000000,-1592617.7766203498468,-4118875.9199345163070,-157106.0163264796720
312660.3336440032581,-1593443.8799575769808,-4121014.9207683238201,-157186.3903992046544
313139.6893358595553,-1595913.7119050463662,-4127409.9713143687695,-157426.6877595479891
313933.1482374984771,-1600001.9253240735270,-4137995.4411120754667,-157824.4423038560199
315032.5683868678170,-1605666.5644671933260,-4152662.6956092235632,-158375.5720247078862
316426.6682454817928,-1612849.4952091404703,-4171261.2101448131725,-159074.4208690879750
318101.1424622726045,-1621477.0024468952324,-4193600.1167734409682,-159913.8168625337712
320038.8086658502580,-1631460.5467814404983,-4219450.1635141037405,-160885.1457294788852
322219.7837788847974,-1642697.6735079605132,-4248546.0679654059932,-161978.4393324009725
324621.6880453855265,-1655073.0644084117375,-4280589.2406740114093,-163182.4780046445085
327219.8746772824088,-1668459.7215293003246,-4315250.8502479176968,-164484.9057244394207
329987.6827638239483,-1682720.2707748399116,-4352175.1987037407234,-165872.3569460375584
332896.7108485993813,-1697708.3719197537284,-4390983.3723629545420,-167330.5937846237503
335917.1083669149666,-1713270.2205583022442,-4431277.1307957302779,-168844.6521458442148
339017.8819529819884,-1729246.1265674836468,-4472642.9938806025311,-170398.9952994815831
342167.2134737902088,-1745472.1528820064850,-4514656.4850276652724,-171977.6733208927908
345332.7865262097912,-1761781.7977642654441,-4556886.4870222024620,-173564.4867640602752
348482.1180470180116,-1778007.7033101927955,-4598899.6658002734184,-175143.1528870753828
351582.8916330850334,-1793983.3726659524255,-4640264.9167792396620,-176697.4727250063734
354603.2891514006187,-1809544.8783435632940,-4680557.7881412887946,-178211.4972966548230
357512.3172361760517,-1824532.5441166639794,-4719364.8357091052458,-179669.6912407660275
360280.1253227175912,-1838792.5832497705705,-4756287.8647574903443,-181057.0922037370037
362878.3119546144735,-1852178.6762628927827,-4790948.0152660524473,-182359.4643445025431
365280.2162211152026,-1864553.4720537241083,-4822989.6487243473530,-183563.4443826344796
367461.1913341496838,-1875789.9969855633099,-4852083.9966358616948,-184656.6786921540333
369398.8575377273955,-1885772.9574927208014,-4877932.5333104450256,-185627.9500353608164
371073.3317545182072,-1894399.9228467880748,-4900270.0383613323793,-186467.2926371869689
372467.4316131321830,-1901582.3759557262529,-4918867.3175040036440,-187166.0944201152888
373566.8517625015229,-1907246.6214206756558,-4933533.5537572493777,-187717.1853513299429
374360.3106641404447,-1911334.5415388895199,-4944118.2649362543598,-188114.9109961551439
374839.6663559967419,-1913804.1925002750941,-4950512.8473643390462,-188355.1905235225568
375000.0000000000000,-1914630.2346636517905,-4952651.6899728719145,-188435.5585686340637
375000.0000000000000,-1914630.2346636517905,-4952651.6899728719145,-188435.5585686340637
375160.3336440032581,-1915456.2767180642113,-4954790.5322995427996,-188515.9266030214203
375639.6893358595553,-1917925.9257930277381,-4961185.1098479432985,-188756.2059447295615
376433.1482374984771,-1922013.8376485931221,-4971769.7996536195278,-189153.9307763555262
377532.5683868678170,-1927678.0612116288394,-4986435.9792522964999,-189705.0195520106936
378926.6682454817928,-1934860.4688429536764,-5005033.1407561870292,-190403.8168590849673
380601.1424622726045,-1943487.3533976885956,-5027370.4368001958355,-191243.1515087258304
382538.8086658502580,-1953470.1847376672085,-5053218.6393528981134,-192214.4101394127065
384719.7837788847974,-1964706.5184813092928,-5082312.4927104068920,-193307.6256323089765
387121.6880453855265,-1977081.0475435706321,-5114353.4362116726115,-194511.5794190829911
389719.8746772824088,-1990466.7856595162302,-5149012.6686944831163,-195813.9166307815758
392487.6827638239483,-2004726.3707315702923,-5185934.5232068859041,-197201.2729046574968
395396.7108485993813,-2019713.4746129885316,-5224740.1173103991896,-198659.4115464275237
398417.1083669149666,-2035274.3048505252227,-5265031.2414901712909,-200173.3696394350554
401517.8819529819884,-2051249.1829686169513,-5306394.4457516465336,-201727.6116006772500
404667.2134737902088,-2067474.1830950961448,-5348405.2824576748535,-203306.1886075492075
407832.7865262097912,-2083782.8141122988891,-5390632.6618646206334,-204892.9022592142574
410982.1180470180116,-2100007.7280735671520,-5432643.2756667407230,-206471.4707933298778
414082.8916330850334,-2115982.4373580552638,-5474006.0431665191427,-208025.6961528749962
417103.2891514006187,-2131543.0229490306228,-5514296.5344615047798,-209539.6301892924821
420012.3172361760517,-2146529.8163134399801,-5553101.3252779431641,-210997.7382971704938
422780.1253227175912,-2160789.0376324071549,-5590022.2387854494154,-212385.0588021393633
425378.3119546144735,-2174174.3735808059573,-5624680.4308882383630,-213687.3564672955545
427780.2162211152026,-2186548.4784745438956,-5656720.2770950403064,-214891.2685438335757
429961.1913341496838,-2197784.3833904098719,-5685813.0211055334657,-215984.4418680582603
431898.8575377273955,-2207766.7988072629087,-5711660.1476952210069,-216955.6595987875771
433573.3317545182072,-2216393.2974093547091,-5733996.4453082010150,-217794.9562953991408
434967.4316131321830,-2223575.3649215409532,-5752592.7269493723288,-218493.7201563424605
436066.8517625015229,-2229239.3081994578242,-5767258.1814717454836,-219044.7813696060039
436860.3106641404447,-2233327.0112616061233,-5777842.3311448693275,-219442.4856690505403
437339.6663559967419,-2235796.5315096727572,-5784236.5754280425608,-219682.7523422369559
437500.0000000000000,-2236622.5300223589875,-5786375.3051156457514,-219763.1160948319884
437500.0000000000000,-2236622.5300223589875,-5786375.3051156457514,-219763.1160948319884
437660.3336440032581,-2237448.5284552276134,-5788514.0345967514440,-219843.4798395843827
438139.6893358595553,-2239918.0473214085214,-5794908.2753048418090,-220083.7463769913302
438933.1482374984771,-2244005.7443307903595,-5805492.4093188280240,-220481.4500817113440
