Time (s), X (km), Y (km), Z (km)
0.0000000000000,-19946.9883672334872,11684.4232639570982,43511.2171346737596
0.0100000000000,-19946.9964009051218,11684.4056407002081,43511.2191351060319
0.0300000000000,-19947.0124682284513,11684.3703941747444,43511.2231359270736
0.0700000000000,-19947.0446027953403,11684.2999010770945,43511.2311373951597
0.1500000000000,-19947.1088716100530,11684.1589146948954,43511.2471396353430
0.3100000000000,-19947.2374079632064,11683.8769411829162,43511.2791413317391
0.6300000000000,-19947.4944755643810,11683.3129911687283,43511.3431335886416
1.2700000000000,-19948.0085903459149,11682.1850791801789,43511.4710735589033
2.5500000000000,-19949.0367382234253,11679.9292073683609,43511.7267753253473
5.1100000000000,-19951.0927072178383,11675.4172724535911,43512.2374661624926
10.2300000000000,-19955.2033380171524,11666.3926378414781,43513.2559970583898
20.4700000000000,-19963.4193696806869,11648.3403125422592,43515.2816557725819
40.9500000000000,-19979.8305038460712,11612.2234620798481,43519.2873611646501
78.4473818157293,-20009.8057089045906,11546.0541519526905,43526.4639048358949
153.4421454471879,-20069.4747679164502,11413.5537726438724,43540.2053887759757
253.4421454471879,-20148.4540455508140,11236.5423684368998,43557.2600162553572
310.3610002452682,-20193.1088585669058,11135.6218871294714,43566.3198181451080
410.3610002452682,-20271.0346495148442,10958.0262498606699,43581.0992834175631
510.3610002452682,-20348.2860306824587,10780.0660420655186,43594.4288209886654
610.3610002452682,-20424.8606120904296,10601.7472800487940,43606.3083734730244
685.6051173182356,-20482.0308758079191,10467.3399760891043,43614.2910085482581
785.6051173182356,-20557.4136045587511,10288.4073492156585,43623.6293231656600
885.6051173182356,-20632.1128909326108,10109.1326783174154,43631.5173463070314
985.6051173182356,-20706.1262972861296,9929.5219460983935,43637.9549126662023
1085.6051173182354,-20779.4513725413599,9749.5811281019814,43642.9418281244944
1185.6051173182354,-20852.0856518763976,9569.3161934644577,43646.4778697257279
1187.7797644974937,-20853.6575026246646,9565.3925001735861,43646.5386460462105
1192.1290588560103,-20856.8002204434852,9557.5446624969190,43646.6581399337301
1200.8276475730434,-20863.0817206029678,9541.8471846027969,43646.8888926121799
1218.2248250071095,-20875.6289728673728,9510.4450333615296,43647.3174569131370
1253.0191798752419,-20900.6604359865778,9447.6120667299347,43648.0428158230134
1322.6078896115066,-20950.4708021544575,9321.8324179034917,43648.9664093409447
1422.6078896115066,-21021.4579514777943,9140.8231247612966,43649.0627837024731
1522.6078896115066,-21091.7458930573157,8959.5097938983436,43647.7073201298408
1622.6078896115066,-21161.3320983583544,8777.8983752907297,43644.8996693134904
1722.6078896115066,-21230.2140234252693,8595.9948165546539,43640.6394529448808
1794.9374999999995,-21279.5957518529685,8464.2458048042681,43636.6525608534066
1894.9374999999995,-21347.2579785523085,8281.8527540881460,43629.8881724802195
1994.9374999999995,-21414.2089163628480,8099.1837544415366,43621.6700410035628
2094.9374999999995,-21480.4459611224738,7916.2447513494853,43611.9976798210264
2194.9374999999995,-21545.9664917427544,7733.0416915191736,43600.8705731508817
2294.9374999999995,-21610.7678698855707,7549.5805236435335,43588.2881759892844
2394.9374999999995,-21674.8474396379097,7365.8671991672500,43574.2499140658620
2480.5426173182354,-21729.1274285999971,7208.4032597082733,43561.0754066321169
2580.5426173182354,-21791.8601846956917,7024.2377063850045,43544.3333637764008
2680.5426173182354,-21853.8634472750637,6839.8370161116109,43526.1336544402075
2780.5426173182354,-21915.1344895738257,6655.2071581669043,43506.4755910546810
2880.5426173182354,-21975.6705656441372,6470.3541083432847,43485.3584565458441
2980.5426173182354,-22035.4689100166252,6285.2838497317980,43462.7815042807706
3080.5426173182354,-22094.5267373598726,6100.0023735113282,43438.7439580121572
3180.5426173182354,-22152.8412421373177,5914.5156797422051,43413.2450118213601
3214.6308829270329,-22172.5493331476755,5851.2405024249429,43404.2187457775944
3282.8074141446277,-22211.7049002897766,5724.6217753158553,43385.6563229287931
3382.8074141446277,-22268.5072655758777,5538.7383800607486,43357.1988952978645
3482.8074141446277,-22324.5577017725627,5352.6679654853988,43327.2774507498398
3582.8074141446277,-22379.8533185421948,5166.4165754933319,43295.8910634013664
3682.8074141446277,-22434.3912035754074,4979.9902669318635,43263.0387773878901
3782.8074141446277,-22488.1684222300573,4793.3951104180769,43228.7196067973564
3882.8074141446277,-22541.1820171668332,4606.6371911711758,43192.9325356024128
3965.1191170729671,-22584.2434112388619,4452.7956150842583,43162.3734799254598
4065.1191170729671,-22635.8571448757939,4265.7566710980745,43123.9075410933438
4165.1191170729671,-22686.6987801875075,4078.5722297780489,43083.9706701699615
4265.1191170729671,-22736.7652696381592,3891.2484399662262,43042.5617353424605
4365.1191170729671,-22786.0535411868768,3703.7914692204117,42999.6795743352632
4465.1191170729671,-22834.5604979017444,3516.2075046896671,42955.3229943339102
4565.1191170729671,-22882.2830175697163,3328.5027539982966,42909.4907719075782
4665.1191170729671,-22929.2179523023224,3140.6834461386479,42862.1816529302523
4699.2073826817641,-22945.0367764253388,3076.6338771904111,42845.7170668453255
4767.3839138993580,-22976.3981961184618,2948.4980994621596,42812.2723649786421
4867.3839138993580,-23021.7303952579823,2760.4662149805413,42761.9720459786986
4967.3839138993580,-23066.2653343290658,2572.3387405319045,42710.1908522215381
5067.3839138993580,-23109.9997580875242,2384.1220002749283,42656.9274052833061
5167.3839138993580,-23152.9303835655992,2195.8223443660568,42602.1802956300307
5267.3839138993580,-23195.0538996498435,2007.4461499127428,42545.9480825314749
5367.3839138993580,-23236.3669666539572,1818.9998219380095,42488.2292939738763
5384.8124999999991,-23243.4841146021790,1786.1495004341948,42478.0175133397570
5419.6696722012812,-23257.6441699123097,1720.4432057800745,42457.4583127562146
5489.3840166038453,-23285.6667779909767,1589.0090369698053,42415.7971100186187
5589.3840166038453,-23325.1685660500116,1400.4300500414197,42354.7727054790666
5689.3840166038453,-23363.8489519614413,1211.8017550742702,42292.2567720123261
5789.3840166038453,-23401.7044706362794,1023.1306857935773,42228.2477046045969
5889.3840166038453,-23438.7316260959124,834.4234090742518,42162.7438664872534
5989.3840166038453,-23474.9268910106184,645.6865259848200,42095.7435890438937
5991.9702355025047,-23475.8519202195384,640.8050293381706,42093.9909526938864
5997.1426732998234,-23477.7003019965632,631.0419904539473,42090.4826737709882
6007.4875488944608,-23481.3903571305746,611.5157337765661,42083.4540901414148
6028.1773000837356,-23488.7436188485917,572.4625324418118,42069.3488125934673
6069.5568024622853,-23503.3426288747687,494.3535993823521,42040.9457588650985
6152.3158072193846,-23532.1096375682282,338.1273885448185,41983.3691930904461
6252.3158072193846,-23566.1005347527862,149.3444164514172,41912.4261066345571
6352.3158072193846,-23599.2464687927022,-39.4439005327946,41839.9802559088857
6452.3158072193846,-23631.5437610345616,-228.2307890205304,41766.0298236337985
6494.1448826817641,-23644.8009091713648,-307.1967445679725,41734.6503519568505
6577.8030336065231,-23670.8665738833915,-465.1220772724924,41671.1000651908616
6677.8030336065231,-23701.2366114757642,-653.8806788413657,41593.7501578470692
6777.8030336065231,-23730.7457952066688,-842.6155199859077,41514.8895292178277
6869.3889997547321,-23757.0135988106376,-1015.4434600619012,41441.3372180624501
6969.3889997547321,-23784.8627870188029,-1204.1133201310388,41359.5767691780347
7069.3889997547321,-23811.8398602815068,-1392.7390177538600,41276.2998046884968
7101.3026181842706,-23820.2651028055298,-1452.9260254431904,41249.4036142526165
7165.1298550433476,-23836.8473391310508,-1573.2833420280469,41195.1469429456702
7179.7500000000000,-23840.5952355465815,-1600.8489297082147,41182.6318458223250
7179.7500000000000,-23840.5952355465815,-1600.8489297082147,41182.6318458223250
7179.7600000000002,-23840.5977926235610,-1600.8677838037779,41182.6232745251618
7179.7800000000007,-23840.6029067511045,-1600.9054919931311,41182.6061318852080
7179.8200000000006,-23840.6131349005445,-1600.9809083647428,41182.5718464227903
7179.9000000000005,-23840.6335907768153,-1601.1317410795859,41182.5032747679434
7180.0600000000004,-23840.6745008389298,-1601.4334063957378,41182.3661285381895
7180.3800000000001,-23840.7563142013678,-1602.0367365737943,41182.0918243983979
7181.0200000000004,-23840.9199138785989,-1603.2433951120368,41181.5431693974315
7182.3000000000002,-23841.2470050385564,-1605.6567049099936,41180.4456725079290
7184.8600000000006,-23841.9007545490240,-1610.4832953354141,41178.2499311620704
7189.9800000000005,-23843.2065220806835,-1620.1363590531535,41173.8554580703785
7200.2200000000003,-23845.8111291738423,-1639.4420143457223,41165.0545492258971
7220.6999999999998,-23850.9926153572815,-1678.0514074517005,41147.4048723872911
7258.1973818157294,-23860.3836198578319,-1748.7355694552439,41114.9241739108111
7333.1921454471885,-23878.7926040688653,-1890.0760054981233,41049.3203823638542
7433.1921454471885,-23902.5634265712506,-2078.4808734631388,40960.5087371062618
7490.1110002452679,-23915.6961371004982,-2185.6848766164053,40909.2767541338399
7590.1110002452679,-23938.0674717500333,-2373.9649230054029,40818.0690575569679
7690.1110002452679,-23959.5416457896681,-2562.1559840076388,40725.3315738329475
7790.1110002452679,-23980.1144807939818,-2750.2506455038301,40631.0620444888264
7865.3551173182359,-23994.9976372170167,-2891.7129441523612,40559.1183632258617
7965.3551173182359,-24013.9807270937818,-3079.6206180916047,40462.1584665314658
8065.3551173182359,-24032.0507612319016,-3267.4111852428928,40363.6601338072360
8165.3551173182359,-24049.2034025325811,-3455.0770089309144,40263.6209798040509
8265.3551173182350,-24065.4342701181304,-3642.6103896605696,40162.0385852784675
8365.3551173182350,-24080.7389386848190,-3830.0035635874465,40058.9104969079854
8367.5297644974944,-24081.0614461973382,-3834.0771020508628,40056.6506386394467
8371.8790588560132,-24081.7051406647042,-3842.2239686141988,40052.1287255517527
8380.5776475730509,-24082.9872459814978,-3858.5168578594275,40043.0761124003766
8397.9748250071261,-24085.5303110341738,-3891.0992413880854,40024.9357319972914
8432.7691798752767,-24090.5317697650135,-3956.2502728471627,39988.5143050864572
8502.3578896115778,-24100.1952864655250,-4086.4961431237311,39915.1083871003284
8602.3578896115778,-24113.2869053068716,-4273.5256369177187,39808.3069680198023
8702.3578896115778,-24125.4370758677687,-4460.3882649076941,39699.9513353496295
8802.3578896115778,-24136.6411708534288,-4647.0759633635544,39590.0388859026498
8902.3578896115778,-24146.8945148904641,-4833.5805954817761,39478.5669819978357
8974.6875000000000,-24153.7156521048382,-4968.3601734460699,39396.9664621466582
9074.6875000000000,-24162.3194588189617,-5154.5300183117752,39282.8008673915829
9174.6875000000000,-24169.9595326674098,-5340.4942535386181,39167.0684595976345
9274.6875000000000,-24176.6310128876212,-5526.2444547907180,39049.7664720842004
9374.6875000000000,-24182.3289871591405,-5711.7721161946047,38930.8921033886581
9474.6875000000000,-24187.0484908325125,-5897.0686484419211,38810.4425172174379
9574.6875000000000,-24190.7845061456064,-6082.1253768529295,38688.4148424019804
9660.2926173182350,-24193.1976702711145,-6240.3464420354057,38582.6970748981039
9760.2926173182350,-24195.0947981428799,-6424.9347927813469,38457.7326585105693
9860.2926173182350,-24195.9938070518001,-6609.2580764634986,38331.1817609221398
9960.2926173182350,-24195.8894668552930,-6793.3072703228881,38203.0413761730597
10060.2926173182350,-24194.7764903051684,-6977.0732562304265,38073.3084632960818
10160.2926173182350,-24192.6495321850271,-7160.5468184970850,37941.9799463085365
10260.2926173182350,-24189.5031884332529,-7343.7186416364175,37809.0527142120045
10360.2926173182350,-24185.3319952513448,-7526.5793080780259,37674.5236210000294
10394.3808829270329,-24183.6750434967835,-7588.8407717905129,37628.2984084776326
10462.5574141446286,-24180.0009594513867,-7713.2502047296221,37535.2878914607281
10562.5574141446286,-24173.7399084124809,-7895.4522978178584,37397.5090387418604
10662.5574141446286,-24166.4371203401533,-8077.3141235162357,37258.1186030546887
10762.5574141446286,-24158.0868818201343,-8258.8258294609714,37117.1132978281094
10862.5574141446286,-24148.6834149905008,-8439.9774489257106,36974.4898016620064
10962.5574141446286,-24138.2208765554460,-8620.7588982076577,36830.2447583948087
11062.5574141446286,-24126.6933567823035,-8801.1599739536050,36684.3747771831186
11144.8691170729671,-24116.4016988280273,-8949.3587150417425,36563.0851484362647
11244.8691170729671,-24102.9171647257135,-9129.0396671703820,36414.2438764777253
11344.8691170729671,-24088.3505979767469,-9308.3107708076841,36263.7679075366832
11444.8691170729671,-24072.6958252962577,-9487.1613393786411,36111.6537191490206
11544.8691170729671,-24055.9466018797139,-9665.5805528581077,35957.8977547452887
11644.8691170729671,-24038.0966102960774,-9843.5574547094875,35802.4964238153480
11744.8691170729671,-24019.1394593620462,-10021.0809487499428,35645.4461020905510
11844.8691170729671,-23999.0686829969964,-10198.1397959399019,35486.7431317442897
11878.9573826817650,-23991.9713949156576,-10258.3881578296641,35432.2657784422481
11947.1339138993608,-23977.3851533368434,-10378.7168953160035,35322.7330065384085
12047.1339138993608,-23955.0418300760102,-10554.8009749461144,35160.6759937782699
12147.1339138993608,-23931.5648694247029,-10730.3855336640627,34996.9550744546286
12247.1339138993608,-23906.9474920472276,-10905.4587237167052,34831.5664581871461
12347.1339138993608,-23881.1828376560588,-11080.0085371401892,34664.5063223611141
12447.1339138993608,-23854.2639637436259,-11254.0228020423074,34495.7708124621204
12547.1339138993608,-23826.1838442924382,-11427.4891787913421,34325.3560424372699
12564.5625000000000,-23821.1706202940186,-11457.6651024396961,34295.4830830319115
12599.4196722012784,-23811.0375349844908,-11517.9655854312441,34235.5836887159167
12669.1340166038353,-23790.3436706232023,-11638.3590762868807,34115.1703705171603
12769.1340166038353,-23759.6600500394561,-11810.5641796125055,33941.0135979874613
12869.1340166038353,-23727.7919771308443,-11982.1804746358230,33765.1648428312110
12969.1340166038353,-23694.7320587541544,-12153.1948696307318,33587.6200905515798
13069.1340166038353,-23660.4728111587719,-12323.5940836024438,33408.3752974892195
13169.1340166038353,-23625.0066585547211,-12493.3646418258668,33227.4263913836330
13171.7202355025038,-23624.0733641171282,-12497.7468482710610,33222.7240228202500
13176.8926732998407,-23622.2043375744033,-12506.5099713204690,33213.3158577570503
13187.2375488945145,-23618.4565298101406,-12524.0310508986913,33194.4858137486226
13207.9273000838621,-23610.9218634511126,-12559.0524866208034,33156.7708531003736
13249.3068024625572,-23595.6960697504001,-12629.0120039288358,33081.1213042428353
13332.0658072199476,-23564.6165652444324,-12768.5939132301828,32928.9425966905110
13432.0658072199476,-23525.9402443033250,-12936.6457860779356,32743.4934037365529
13532.0658072199476,-23486.0287270623267,-13104.0183982148465,32556.3250879297848
13632.0658072199476,-23444.8739922956884,-13270.6973164836400,32367.4334530868146
13673.8948826817650,-23427.2888706795748,-13340.2087284780282,32287.9097558566900
13757.5530336053998,-23391.4591030792326,-13478.8548696412072,32127.9541784409448
13857.5530336053998,-23347.4711156033118,-13643.9154838226805,31935.1611550324596
13957.5530336053998,-23302.2130979088506,-13808.2338669366800,31740.6309884011789
14049.1389997547321,-23259.6417640343680,-13958.0623210624617,31560.9410004132405
14149.1389997547321,-23211.9268252094735,-14120.9154406594753,31363.0706973825509
14249.1389997547321,-23162.9168853933152,-14282.9807025574555,31163.4506711970935
14281.0526181842706,-23147.0022393092149,-14334.5335253243393,31099.3757915462120
14344.8798550433476,-23114.7732958027118,-14437.3911396561907,30970.6894482070893
14359.5000000000000,-23107.3158687779469,-14460.9047378457508,30941.1120337655302
14359.5000000000000,-23107.3158687779469,-14460.9047378457508,30941.1120337655302
14359.5100000000002,-23107.3107583851670,-14460.9208148542584,30941.0917903123882
14359.5300000000007,-23107.3005375602006,-14460.9529688466100,30941.0513033533389
14359.5700000000015,-23107.2800957526379,-14461.0172767326676,30940.9703292241720
14359.6500000000015,-23107.2392115069997,-14461.1458921101912,30940.8083801215653
14359.8100000000013,-23107.1574404936327,-14461.4031212868395,30940.4844785392634
14360.1300000000010,-23106.9938883784162,-14461.9175733262819,30939.8366618662221
14360.7700000000004,-23106.6667437929427,-14462.9464521477203,30938.5409744858662
14362.0500000000011,-23106.0122931930237,-14465.0041087445152,30935.9493835837457
14364.6100000000006,-23104.7027462068254,-14469.1190176234541,30930.7653371794186
14369.7300000000014,-23102.0810685248907,-14477.3472170796194,30920.3937856948687
14379.9700000000012,-23096.8273738067983,-14493.7971344324251,30899.6368458172110
14400.4500000000007,-23086.2785907718644,-14526.6709759528039,30858.0676007806615
14437.9473818157294,-23066.8212721863383,-14586.7703231240757,30781.7659266412484
14512.9421454471867,-23027.3488496058526,-14706.6154073008947,30628.4188497556279
14612.9421454471867,-22973.5527706652865,-14865.6763083891037,30422.3964397503405
14669.8610002452679,-22942.3366151234222,-14955.8273327656734,30304.3407991570311
14769.8610002452679,-22886.4388851592375,-15113.5231549483178,30095.5388864697234
14869.8610002452679,-22829.1898030629891,-15270.3265300355561,29884.9599910958241
14969.8610002452679,-22770.5798618834124,-15426.2195779036865,29672.5996774387277
15045.1051173182350,-22725.5765538168307,-15542.9092590273067,29511.6339709391505
15145.1051173182350,-22664.5584867584184,-15697.1629719256689,29296.1411070134454
15245.1051173182350,-22602.1527464573555,-15850.4555419523949,29078.8545820499457
15345.1051173182350,-22538.3493500553886,-16002.7679017882438,28859.7699415117822
15445.1051173182350,-22473.1381831083745,-16154.0806485179437,28638.8827307298452
15545.1051173182350,-22406.5089975333140,-16304.3740350883509,28416.1884971990767
15547.2797644974944,-22405.0442355240157,-16307.6309481162043,28411.3255826040040
15551.6290588560132,-22402.1126845571998,-16314.1432986511718,28401.5971832230825
15560.3276475730509,-22396.2414716028470,-16327.1620913736751,28382.1301023268425
15577.7248250071261,-22384.4665757552029,-16353.1759932254045,28343.1548010282240
15612.5191798752767,-22360.7866969205970,-16405.1086595173219,28265.0395526891152
15682.1078896115778,-22312.9049230210585,-16508.5901953874636,28108.1497718628998
15782.1078896115778,-22242.8732858091244,-16656.3867686643789,27881.1550944531482
15882.1078896115778,-22171.3880821090752,-16803.0947816588341,27652.3384384001365
15982.1078896115778,-22098.4384551279472,-16948.6928767715472,27421.6953909760814
16082.1078896115778,-22024.0134029914152,-17093.1593018879939,27189.2215563406426
16154.4375000000000,-21969.2565523426201,-17196.9341497741116,27019.9307905263449
16254.4375000000000,-21892.2626638908296,-17339.3981581341795,26784.2917122694562
16354.4375000000000,-21813.7626357782065,-17480.6691757068147,26546.8099878623652
16454.4375000000000,-21733.7449064251596,-17620.7238884631588,26307.4813143712345
16554.4375000000000,-21652.1977585997920,-17759.5385364284703,26066.3014227515523
16654.4375000000000,-21569.1093171323846,-17897.0889018265516,25823.2660820356541
16754.4375000000000,-21484.4675466171793,-18033.3502968599605,25578.3711037509456
16840.0426173182350,-21410.7668526421257,-18148.9544867777404,25367.2480486560635
